string
20201019p3.2_degreeper_secondprocessedoffset angle 0.018143133866652134 in rad by: offset_angle in degree:_2.7offset 0th. order in px_-110
nm eV  counts
1.814213851047364e-09 683.4045112028117 929.3793196097884
1.8220181866625935e-09 680.4772527344657 1454.1044250165344
1.8298224670556368e-09 677.5749846854932 1860.8227513227514
1.8376266922228222e-09 674.6973883975652 1939.5323247354497
1.8454308621604787e-09 671.8441506071322 1943.7355014054233
1.8532349768649361e-09 669.0149633317405 1994.419642857143
1.8610390363325228e-09 666.2095237592129 1979.8876901455026
1.8688430405595685e-09 663.427534139604 1944.1251240079366
1.8766469895424005e-09 660.6687016798594 1952.297371031746
1.8844508832773494e-09 657.9327384410884 1967.0173094411375
1.8922547217607436e-09 655.2193612383861 1978.1813306051588
1.9000585049889112e-09 652.5282915431228 1980.001167741402
1.9078622329581818e-09 649.8592553876349 1966.9943059689153
1.9156659056648838e-09 647.2119832722468 1988.303158068783
1.9234695231053457e-09 644.5862100745591 2016.9989769345239
1.931273085275896e-09 641.9816749609361 2008.4066943617725
1.939076592172864e-09 639.3981213001335 2038.7710813492063
1.946880043792577e-09 636.8352965790061 2062.786685681217
1.954683440131365e-09 634.2929523202337 2081.3067956349205
1.9624867811855554e-09 631.7708440020141 2096.9759011243386
1.9702900669514766e-09 629.2687309796647 2080.89666005291
1.9780932974254578e-09 626.7863764090816 2124.022548776455
1.985896472603826e-09 624.3235471720056 2173.1667906746034
1.9936995924829107e-09 621.8800138030433 2197.991588128307
2.0015026570590396e-09 619.4555504183985 2205.8122933201057
2.00930566632854e-09 617.0499346462643 2268.1610656415346
2.017108620287742e-09 614.662947558833 2351.035755621693
2.024911518932972e-09 612.2943736058796 2347.071304563492
2.032714362260558e-09 609.9440005498758 2388.440372850529
2.0405171502668297e-09 607.6116194025939 2437.326678240741
2.0483198829481136e-09 605.2970243631624 2456.920407572751
2.0561225603007376e-09 603.0000127575321 2477.352699239418
2.0639251823210295e-09 600.7203849793162 2486.802352017196
2.0717277490053177e-09 598.4579444319698 2557.1638144841268
2.07953026034993e-09 596.2124974722713 2616.5973255621693
2.087332716351193e-09 593.9838533550735 2654.4826802248676
2.095135117005436e-09 591.7718241792887 2791.425223214286
2.102937462308985e-09 589.5762248350799 2881.202277612434
2.1107397522581683e-09 587.3968729522213 2977.0544808201057
2.1185419868493137e-09 585.233588849604 3072.257750496032
2.126344166078748e-09 583.0861954858523 3056.0078125
2.134146289942799e-09 580.9545184110249 3117.7517154431216
2.141948358437794e-09 578.8383857193734 3093.913483796296
2.1497503715600603e-09 576.737628003129 3137.9577752976193
2.157552329305925e-09 574.6520783072947 3175.5564029431216
2.1653542316717157e-09 572.5815720854139 3377.7024636243386
2.173156078653759e-09 570.5259471562944 3659.8658854166665
2.1809578702483818e-09 568.4850436616609 3751.3171296296296
2.188759606451912e-09 566.4587040247145 3708.209408068783
2.1965612872606767e-09 564.4467729095766 3748.537967096561
2.2043629126710017e-09 562.4490971815942 3735.2242063492063
2.212164482679215e-09 560.4655258684865 3638.8195064484125
2.219965997281643e-09 558.4959101223108 3468.855530753968
2.2277674564746124e-09 556.5401031822298 3205.291439318783
2.2355688602544505e-09 554.5979603380576 3148.8993468915346
2.243370208617483e-09 552.6693388945683 3279.9035424933863
2.2511715015600377e-09 550.7540981365468 3548.9680266203704
2.2589727390784405e-09 548.8520992945644 3902.096064814815
2.2667739211690177e-09 546.9632055114631 4105.980861441799
2.2745750478280966e-09 545.087281809528 4339.843129960317
2.282376119052003e-09 543.2241950583366 4653.999710648148
2.290177134837063e-09 541.3738139432626 4952.239500661376
2.297978095179604e-09 539.5360089346246 5101.536375661376
2.3057790000759513e-09 537.7106522574603 5039.701223544974
2.313579849522432e-09 535.897617861913 4842.441261574074
2.3213806435153717e-09 534.0967813942162 4848.62888558201
2.3291813820510964e-09 532.3080201682616 5141.8682208994705
2.3369820651259324e-09 530.5312131377368 5391.405505952381
2.3447826927362056e-09 528.7662408688207 5590.48544973545
2.3525832648782425e-09 527.0129855134212 5490.1166087962965
2.360383781548368e-09 525.2713307829463 5424.631820436508
2.3681842427429084e-09 523.5411619225913 5389.688864087301
2.3759846484581897e-09 521.8223656861359 5267.5776289682535
2.3837849986905373e-09 520.1148303112342 4848.257936507936
2.3915852934362773e-09 518.4184454951907 4337.553530092592
2.3993855326917347e-09 516.7331023712084 3827.5860615079364
2.4071857164532363e-09 515.0586934850984 3421.2268518518517
2.414985844717106e-09 513.3951127724439 3213.5729993386244
2.42278591747967e-09 511.7422555362026 3128.610015707672
2.4305859347372545e-09 510.10001842474287 3087.0989583333335
2.4383858964861833e-09 508.46829941030205 3063.68251901455
2.4461858027227826e-09 506.84699776785567 3081.2124875992063
2.453985653443378e-09 505.23601405439183 3072.71484375
2.461785448644294e-09 503.6352500885793 3049.751281415344
2.469585188321855e-09 502.0446089308213 3091.4405381944443
2.4773848724723874e-09 500.463994863686 3100.1369047619046
2.485184501092216e-09 498.8933133727074 3087.4651537698414
2.4929840741776653e-09 497.3324711275455 3231.484375
2.5007835917250605e-09 495.7813759635001 3541.4663938492063
2.508583053730726e-09 494.23993686337013 3929.488673941799
2.5163824601909875e-09 492.70806393964983 4263.3020419973545
2.524181811102169e-09 491.18566841705626 4432.6239666005295
2.531981106460594e-09 489.6726626153797 4601.7687251984125
2.5397803462625897e-09 488.1689599326501 4985.596519510582
2.5475795305044786e-09 486.6744748286141 5175.206266534392
2.555378659182586e-09 485.1891228085135 5027.935226521164
2.5631777322932357e-09 483.71282040716187 4783.101810515873
2.570976749832753e-09 482.2454851733095 4565.220940806878
2.5787757117974616e-09 480.7870356542943 4520.2812913359785
2.586574618183686e-09 479.33739138096917 4377.866443452381
2.5943734689877497e-09 477.89647285290243 3947.8698743386244
2.602172264205978e-09 476.46420152384394 3592.3093791335978
2.6099710038346932e-09 475.0404997874535 3363.9174520502647
2.617769687870221e-09 473.6252909632824 3283.524016203704
2.625568316308885e-09 472.21849928300753 3420.109457671958
2.633366889147008e-09 470.82004987690874 3627.6490988756614
2.641165406380916e-09 469.42986876058643 3846.448640046296
2.6489638680069302e-09 468.047882821915 3925.5930059523807
2.656762274021375e-09 466.67401980822433 3975.7420221560847
2.6645606244205752e-09 465.3082083137086 4015.527281746032
2.6723589192008536e-09 463.9503777670548 4051.441964285714
2.680157158358533e-09 462.60045841928826 3970.9783812830688
2.6879553418899388e-09 461.25838133182833 3893.765666335979
2.6957534697913924e-09 459.9240783647542 4126.636904761905
2.703551542059218e-09 458.5974821652715 4436.548115079365
2.7113495586897383e-09 457.2785261563798 4322.028728505291
2.719147519679277e-09 455.96714452573485 4296.734126984127
2.7269454250241576e-09 454.66327221470186 4262.597346230159
2.7347432747207027e-09 453.3668449075969 4168.001240079365
2.7425410687652348e-09 452.0777990211116 3817.8386243386244
2.750338807154077e-09 450.79607169391807 3234.492786871693
2.7581364898835524e-09 449.5216007764504 2814.889984292328
2.7659341169499852e-09 448.254324820859 2691.389674272487
2.7737316883496957e-09 446.99418307113575 2665.7550223214284
2.7815292040790077e-09 445.74111545340344 2695.6684854497353
2.7893266641342445e-09 444.4950625663697 2788.3712177579364
2.7971240685117272e-09 443.2559656719411 2899.3408564814813
2.804921417207779e-09 442.02376668599237 3009.787491732804
2.8127187102187227e-09 440.79840816929106 3010.567977017196
2.82051594754088e-09 439.579833318572 3108.011615410053
2.828313129170574e-09 438.36798595776 3263.370494378307
2.836110255104126e-09 437.1628105293369 3418.1447792658732
2.8439073253378594e-09 435.96425208585157 3439.4553571428573
2.851704339868094e-09 434.7722562815693 3486.878265542328
2.859501298691154e-09 433.58676936425684 3888.4212136243386
2.8672982018033605e-09 432.40773816710356 4397.404885912699
2.8750950492010356e-09 431.2351101007725 4540.521040013227
2.882891840880501e-09 430.06883314558144 4470.515873015873
2.890688576838078e-09 428.908855843811 4589.0541914682535
2.8984852570700894e-09 427.75512729213557 4785.038814484127
2.906281881572856e-09 426.6075971341782 4795.878761574074
2.914078450342699e-09 425.4662155531837 4301.635416666667
2.921874963375941e-09 424.3309332648096 4286.7208994709
2.929671420668903e-09 423.20170151003265 4640.7473544973545
2.9374678222179053e-09 422.07847204816846 4876.335152116402
2.94526416801927e-09 420.9611971500013 4511.789723875661
2.953060458069319e-09 419.8498295910239 4312.7166418650795
2.960856692364372e-09 418.74432264478395 4014.05291005291
2.9686528709007516e-09 417.64463007633503 3893.2693245701057
2.976448993674778e-09 416.5507061357914 3352.265625
2.9842450606827717e-09 415.46250555198316 2712.575686177249
2.9920410719210537e-09 414.3799835262115 2384.5902571097886
2.9998370273859455e-09 413.30309572610054 2347.182457010582
3.007632927073768e-09 412.2317982795461 2460.728897982804
3.0154287709808405e-09 411.1660477687576 2671.3771908068784
3.0232245591034846e-09 410.1058012243922 2853.977451223545
3.03102029143802e-09 409.0510161197802 3105.7226355820108
3.0388159679807687e-09 408.00165036523885 3416.138744212963
3.0466115887280493e-09 406.9576623024744 3609.4232390873017
3.0544071536761833e-09 405.9190106990686 3675.3856026785716
3.0622026628214902e-09 404.88565474305136 3770.21662119709
3.0699981161602903e-09 403.85755403755434 3767.5259796626983
3.077793513688904e-09 402.8346685955472 3670.5353422619046
3.0855888554036516e-09 401.8169588346534 3304.3652860449733
3.0933841413008517e-09 400.8043855720445 2953.287967096561
3.101179371376825e-09 399.7969100194111 2649.6279968584654
3.108974545627892e-09 398.7944937780102 2373.875062003968
3.116769664050371e-09 397.79709883378695 2100.032820767196
3.1245647266405825e-09 396.80468755256896 1746.5633680555557
3.132359733394846e-09 395.81722267533297 1556.5546358300264
3.140154684309481e-09 394.83466731354196 1525.1226128472222
3.1479495793808068e-09 393.85698494455175 1524.8830501818784
3.1557444186051426e-09 392.88413940708534 1582.9589327050264
3.1635392019788093e-09 391.91609489677484 1647.7949012070105
3.1713339294981226e-09 390.9528159617694 1717.425212880291
3.1791286011594044e-09 389.9942674984061 1813.7613570601852
3.1869232169589733e-09 389.04041474694725 1911.7052228009259
3.194717776893148e-09 388.09122328737794 1979.8071263227514
3.202512280958248e-09 387.1466590352659 2031.2581845238096
3.2103067291505905e-09 386.2066882376819 2042.8762194113756
3.218101121466497e-09 385.27127746917887 2091.6821883267194
3.2258954579022834e-09 384.34039362783057 2131.976665839947
3.2336897384542686e-09 383.4140039313263 2101.7934854497353
3.2414839631187734e-09 382.4920759131223 2108.5890376984125
3.2492781318921144e-09 381.5745774186501 2114.7372271825398
3.2570722447706098e-09 380.6614766015773 2129.7189566798943
3.2648663017505786e-09 379.7527419201231 2116.823681382275
3.2726603028283396e-09 378.8483421334266 2090.1992394179892
3.2804542480002093e-09 377.94824629796676 2081.215877149471
3.2882481372625075e-09 377.05242376403277 2058.650710978836
3.2960419706115508e-09 376.1608441722461 2028.4433077050264
3.3038357480436582e-09 375.27347745012975 1999.8468295304233
3.311629469555147e-09 374.3902938087283 1985.9967757936508
3.3194231351423343e-09 373.51126373927343 1991.567935681217
3.3272167448015394e-09 372.6363580098982 2093.979621362434
3.3350102985290786e-09 371.7655476623962 2426.9890252976193
3.3428037963212698e-09 370.8988040090271 3157.294353505291
3.350597238174431e-09 370.03609862936577 3673.1685887896824
3.3583906240848775e-09 369.17740336719675 3732.298466435185
3.3661839540489305e-09 368.3226903274497 3926.6440145502647
3.3739772280629025e-09 367.47193187318084 4005.789558531746
3.3817704461231146e-09 366.6251006225919 3928.016906415344
3.3895636082258814e-09 365.7821694460944 3496.5543981481483
3.397356714367521e-09 364.9431114634111 2732.1778273809523
3.40514976454435e-09 364.1079000407197 2213.549851190476
3.4129427587526864e-09 363.2765087878339 2083.065476190476
3.420735696988844e-09 362.44891155542496 1978.5527240410054
3.4285285792491415e-09 361.62508243227876 1934.5973048941798
3.4363214055298956e-09 360.8049957425928 1900.4271040013227
3.4441141758274223e-09 359.98862604330816 1881.2137690145503
3.4519068901380386e-09 359.17594812147854 1886.2063388723545
3.4596995484580586e-09 358.36693699167466 1873.3417452050264
3.467492150783802e-09 357.5615678934232 1846.8561197916667
3.4752846971115824e-09 356.7598162886815 1811.378833912037
3.4830771874377175e-09 355.961657859345 1815.9772445436508
3.4908696217585214e-09 355.16706850478863 1806.557632688492
3.498662000070312e-09 354.3760243394411 1798.9535383597884
3.5064543223694037e-09 353.58850169039147 1854.0194175760582
3.5142465886521136e-09 352.80447709502783 1960.4528873181216
3.522038798914756e-09 352.0239272987073 2024.5981316137565
3.529830953153648e-09 351.2468292524563 2060.31214864418
3.5376230513651025e-09 350.47316011070274 2126.549148478836
3.545415093545438e-09 349.7028972290363 2198.296440972222
3.553207079690968e-09 348.9360181619999 2302.700169477513
3.5609990097980082e-09 348.1725006609093 2320.00568369709
3.5687908838628737e-09 347.4123226717012 2358.36150380291
3.57658270188188e-09 346.65546233281015 2417.748015873016
3.5843744638513423e-09 345.9018979730728 2460.2787078373017
3.5921661697675748e-09 345.15160810965943 2410.3600363756614
3.5999578196268926e-09 344.4045714460327 2342.274780919312
3.6077494134256094e-09 343.66076686993256 2258.9464699074074
3.6155409511600435e-09 342.92017345138686 2145.758411871693
3.6233324328265043e-09 342.18277044074955 2053.5295138888887
3.6311238584213097e-09 341.4485372667612 1932.4265562996031
3.6389152279407733e-09 340.7174535346373 1850.5181051587301
3.64670654138121e-09 339.98949902417905 1764.6664083167989
3.654497798738933e-09 339.26465368791025 1685.3519758597884
3.6622890000102573e-09 338.5428976492357 1643.119068287037
3.670080145191496e-09 337.82421120062554 1598.5508845899471
3.677871234278964e-09 337.10857480182057 1580.9161499669312
3.685662267268975e-09 336.39596907806214 1575.0008783895503
3.693453244157843e-09 335.6863748183429 1555.493892609127
3.7012441649418816e-09 334.97977297368135 1554.8933428406085
3.7090350296174036e-09 334.27614465541654 1534.1202876984128
3.7168258381807233e-09 333.5754711335252 1519.459521742725
3.7246165906281546e-09 332.8777338349598 1499.5997230489418
3.732407286956009e-09 332.18291434200796 1519.4282200727514
3.740197927160603e-09 331.4909943906709 1556.603236607143
3.747988511238247e-09 330.8019558690642 1687.4600591104497
3.755779039185256e-09 330.1157808158369 1938.5872809193122
3.763569510997943e-09 329.43245141861075 2160.3840319113756
3.771359926672617e-09 328.7519500124397 2253.9396494708994
3.779150286205595e-09 328.0742590782864 2502.1614583333335
3.78694058959319e-09 327.3993612415197 2551.7746569113756
3.794730836831712e-09 326.7272392704302 2558.6272321428573
3.802521027917475e-09 326.0578760747624 2481.6651165674602
3.810311162846791e-09 325.3912547042676 2278.4668485449733
3.818101241615974e-09 324.72735834727195 2121.1939897486773
3.825891264221335e-09 324.066170329264 1975.808345734127
3.8336812306591854e-09 323.4076741114985 1840.3957299933863
3.841471140925839e-09 322.7518532896171 1821.5887483465608
3.8492609950176065e-09 322.0986915922866 1840.4004836309523
3.857050792930801e-09 321.448172879853 1832.7617290839946
3.8648405346617345e-09 320.8002811430123 1788.288173776455
3.872630220206717e-09 320.1550005014971 1800.2096664186508
3.880419849562061e-09 319.5123152027792 1799.0456142526455
3.888209422724079e-09 318.8722096207877 1741.098400297619
3.8959989396890814e-09 318.23466825464266 1649.7124772652116
3.9037884004533795e-09 317.59967572740396 1570.1170531580688
3.911577805013286e-09 316.96721678483476 1571.1963975694443
3.919367153365111e-09 316.33727629418036 1609.6976686507937
3.927156445505166e-09 315.70983924296104 1651.7946221891534
3.9349456814297616e-09 315.0848907377797 1692.3988508597884
3.94273486113521e-09 314.46241600314295 1707.6857845568784
3.95052398461782e-09 313.84240038029753 1696.520275297619
3.9583130518739035e-09 313.22482932607903 1675.7465277777778
3.966102062899772e-09 312.6096884117747 1552.839771412037
3.9738910176917345e-09 311.9969633220003 1473.5799747850529
3.981679916246102e-09 311.38663985358926 1414.3985821759259
3.989468758559186e-09 310.7787039144953 1374.09197255291
3.997257544627295e-09 310.173141522708 1391.5218460648148
4.005046274446741e-09 309.5699388051807 1590.5567439649471
4.0128349480138314e-09 308.96908199677114 1781.9432353670634
4.020623565324878e-09 308.3705574391945 1805.713676008598
4.028412126376192e-09 307.7743515799883 1875.4453125
4.0362006311640825e-09 307.18045097148973 1909.8989955357142
4.043989079684856e-09 306.58884226982485 1919.627914186508
4.0517774719348254e-09 305.9995122339082 1873.9184544477514
4.059565807910301e-09 305.4124477244561 1905.9034391534392
4.06735408760759e-09 304.82763570300983 2015.691695601852
4.075142311023001e-09 304.24506323097 2034.6094990079366
4.0829304781528475e-09 303.6647174686426 2022.336474867725
4.0907185889934335e-09 303.0865856742962 2132.1776000330688
4.098506643541071e-09 302.5106552032285 2146.309627149471
4.10629464179207e-09 301.93691350684526 2113.8597470238096
4.114082583742736e-09 301.3653481317489 1916.400359623016
4.121870469389379e-09 300.7959467188368 1713.016544725529
4.129658298728309e-09 300.2286970024112 1643.9040385251324
4.137446071755834e-09 299.6635868092983 1667.5378120866403
4.145233788468261e-09 299.10060405797725 1681.8927848048943
4.1530214488619e-09 298.5397367577195 1723.168433779762
4.1608090529330595e-09 297.98097300773713 1717.368861607143
4.168596600678046e-09 297.4243009963418 1660.3022280092594
4.176384092093169e-09 296.86970900011164 1641.337921626984
4.1841715271747365e-09 296.31718538306876 1613.0456762566137
4.191958905919055e-09 295.7667185958657 1616.1171875
4.199746228322434e-09 295.21829717498014 1572.4489500661375
4.207533494381179e-09 294.6719097419196 1528.6182622354497
4.215320704091601e-09 294.1275450024341 1532.072937334656
4.2231078574500035e-09 293.58519174573854 1562.1536975033068
4.230894954452697e-09 293.04483884374264 1522.6050863921957
4.238681995095987e-09 292.50647525029 1521.307674024471
4.246468979376181e-09 291.9700900004057 1467.4143931878307
4.2542559072895855e-09 291.43567220955117 1412.3563471395503
4.262042778832509e-09 290.90321107288867 1316.9065186838625
4.269829594001259e-09 290.3726958645528 1253.2159184854497
4.277616352792139e-09 289.8441159369305 1234.4390397652116
4.2854030552014575e-09 289.3174607199484 1231.2989934689153
4.293189701225522e-09 288.79271972036844 1240.8982514880952
4.300976290860639e-09 288.26988252109106 1227.0017257771165
4.308762824103113e-09 287.748938780466 1240.6282758763227
4.316549300949252e-09 287.22987823160986 1241.346984540344
4.32433572139536e-09 286.7126906817325 1249.9925181878307
4.3321220854377454e-09 286.1973660114689 1270.3997395833333
4.339908393072714e-09 285.68389417422 1286.7258391203704
4.3476946442965696e-09 285.17226519549956 1298.9699074074074
4.35548083910562e-09 284.66246917228796 1332.5975115740741
4.36326697749617e-09 284.15449627239377 1387.877945188492
4.3710530594645256e-09 283.6483367338215 1408.5394965277778
4.378839085006992e-09 283.143980864146 1408.621310763889
4.386625054119874e-09 282.6414190398943 1444.4960420800264
4.394410966799478e-09 282.14064170593304 1463.5145399305557
4.402196823042108e-09 281.6416393748633 1451.458343667328
4.40998262284407e-09 281.14440262642125 1431.1950024801588
4.417768366201668e-09 280.6489221068854 1395.805679563492
